-0.05435902
0.15090698
0.34411247
0.52288864
0.68486673
0.82767795
0.94895352
1.04632466
1.11742259
1.15987852
1.17132368
1.15354552
1.11332008
1.05576144
0.98598368
0.90910088
0.83022711
0.75447645
0.68696298
0.63280078
0.59710393
0.58498650
0.59756893
0.61148304
0.61206154
0.60610730
0.59420670
0.57694609
0.55491184
0.52869031
0.49886788
0.46603090
0.43076574
0.39365876
0.35529633
0.31626481
0.27715057
0.23853997
0.20101937
0.16517515
0.13159366
0.10086127
0.07356435
0.05028926
0.03162236
0.01815002
0.01045860
0.00913447
0.06712657
0.21916549
0.43851004
0.69841906
0.97215134
1.23296573
1.45412103
1.60887606
1.67048965
1.65872248
1.61536131
1.54670408
1.45904875
1.35869324
1.25193552
1.14507352
1.04440518
0.95622846
0.88684129
0.84254162
0.82962739
0.84957793
0.86853115
0.86803108
0.86108515
0.84817439
0.82977979
0.80638237
0.77846314
0.74650312
0.71098330
0.67238471
0.63118835
0.58787523
0.54292637
0.49682278
0.45004546
0.40307542
0.35639369
0.31048126
0.26581915
0.22288837
0.18216993
0.14414484
0.10929411
0.07809875
0.05103977
0.02859819
0.01125501
-0.00050876
-0.00621210
-0.00537400
0.04440832
0.17044237
0.35056626
0.56261808
0.78443592
0.99385787
1.16872204
1.28686651
1.32612939
1.30644776
1.26539953
1.20728404
1.13640061
1.05704860
0.97352732
0.89013612
0.81117434
0.74094130
0.68373634
0.64385880
0.62560801
0.62528389
0.62532020
0.61836947
0.60822966
0.59511913
0.57925623
0.56085930
0.54014668
0.51733673
0.49264779
0.46629821
0.43850633
0.40949050
0.37946906
0.34866037
0.31728277
0.28555460
0.25369421
0.22191996
0.19045018
0.15950321
0.12929742
0.10005114
0.07198273
0.04531052
0.02025286
-0.00297190
-0.02414541
-0.04304932
-0.05946530
-0.07317499
-0.08396005
-0.09160213
-0.04136410
0.10356639
0.31652057
0.57082965
0.83982483
1.09683734
1.31519837
1.46823915
1.52929089
1.51695890
1.47197406
1.40085592
1.31012402
1.20629791
1.09589714
0.98544124
0.88144978
0.79044228
0.71893831
0.67345740
0.66051910
0.67691889
0.70264705
0.71901537
0.72121370
0.71720960
0.70748143
0.69250758
0.67276640
0.64873626
0.62089555
0.58972262
0.55569585
0.51929361
0.48099426
0.44127618
0.40061773
0.35949729
0.31839323
0.27778391
0.23814771
0.19996299
0.16370813
0.12986149
0.09890144
0.07130636
0.04755462
0.02812457
0.01349460
0.00414308
0.00054835
0.00318853
0.06388505
0.21636665
0.43397226
0.69004083
0.95791130
1.21092262
1.42241374
1.56572359
1.61419113
1.59118167
1.54139700
1.47018076
1.38287660
1.28482814
1.18137903
1.07787290
0.97965339
0.89206415
0.82044880
0.77015100
0.74651436
0.74501149
0.74325358
0.73227407
0.71758396
0.69945111
0.67814342
0.65392874
0.62707495
0.59784993
0.56652155
0.53335767
0.49862618
0.46259495
0.42553185
0.38770476
0.34938154
0.31083007
0.27231823
0.23411388
0.19648491
0.15969917
0.12402456
0.08972894
0.05708018
0.02634615
-0.00220526
-0.02830619
-0.05168876
-0.07208510
-0.08922734
-0.10284761
-0.11267802
-0.07034791
0.05653566
0.24427395
0.46916820
0.70751968
0.93562963
1.12979933
1.26633001
1.32152295
1.31174768
1.27304536
1.21122468
1.13209432
1.04146297
0.94513930
0.84893199
0.75864974
0.68010121
0.61909509
0.58144007
0.57294482
0.59262327
0.62195635
0.64045327
0.64368903
0.64118539
0.63337167
0.62067721
0.60353132
0.58236333
0.55760257
0.52967837
0.49902005
0.46605694
0.43121836
0.39493364
0.35763211
0.31974310
0.28169592
0.24391991
0.20684439
0.17089870
0.13651215
0.10411407
0.07413379
0.04700063
0.02314393
0.00299300
-0.01302282
-0.02447422
-0.03093185
-0.03196640
-0.02714855
0.01926606
0.13026489
0.28714198
0.47119139
0.66370715
0.84598331
0.99931390
1.10499296
1.14431455
1.13218325
1.09881725
1.04848102
0.98543898
0.91395558
0.83829528
0.76272250
0.69150171
0.62889733
0.57917383
0.54659564
0.53542720
0.54220167
0.55419770
0.56179795
0.56215232
0.55897342
0.55248807
0.54292306
0.53050518
0.51546123
0.49801802
0.47840233
0.45684096
0.43356072
0.40878839
0.38275078
0.35567468
0.32778689
0.29931420
0.27048342
0.24152134
0.21265476
0.18411048
0.15611529
0.12889598
0.10267937
0.07769223
0.05416138
0.03231361
0.01237571
-0.00542551
-0.02086327
-0.03371075
-0.04374118
-0.05072774
-0.05444364
-0.05466209
-0.00135625
0.13881257
0.34103893
0.58051738
0.83244251
1.07200886
1.27441101
1.41484351
1.46850093
1.45777175
1.42432607
1.37228092
1.30575333
1.22886032
1.14571892
1.06044616
0.97715907
0.89997467
0.83300999
0.78038205
0.74620789
0.73460453
0.74384820
0.75287762
0.75139975
0.74589127
0.73661763
0.72384431
0.70783675
0.68886042
0.66718076
0.64306323
0.61677330
0.58857642
0.55873804
0.52752362
0.49519862
0.46202850
0.42827871
0.39421480
0.36010250
0.32620754
0.29279568
0.26013265
0.22848419
0.19811605
0.16929398
0.14228371
0.11735098
0.09476155
0.07478115
0.05767553
0.04371043
0.03315159
0.02626475
0.02331566
0.06578200
0.18267977
0.35558221
0.56606256
0.79569406
1.02604995
1.23870346
1.41522783
1.53719630
1.58618211
1.57468759
1.53169884
1.46351468
1.37643397
1.27675553
1.17077822
1.06480087
0.96512233
0.87804143
0.80985701
0.76686792
0.75537300
0.77314038
0.80071528
0.81856220
0.82186425
0.81914809
0.81089355
0.79758047
0.77968866
0.75769798
0.73208825
0.70333931
0.67193098
0.63834310
0.60305550
0.56654802
0.52930048
0.49179272
0.45450458
0.41791588
0.38250646
0.34875615
0.31714478
0.28815219
0.26225820
0.23994266
0.22168539
0.20796622
0.19926500
0.19606155
0.19883570
0.24860742
0.37337259
0.55407486
0.77165791
1.00706540
1.24124101
1.45512839
1.62967122
1.74581318
1.78449791
1.76247438
1.71287211
1.64120567
1.55298962
1.45373853
1.34896696
1.24418947
1.14492062
1.05667498
0.98496710
0.93531157
0.91322292
0.91213125
0.91551343
0.91395417
0.90533359
0.89392910
0.87992141
0.86349122
0.84481925
0.82408621
0.80147280
0.77715974
0.75132772
0.72415747
0.69582969
0.66652509
0.63642437
0.60570826
0.57455745
0.54315266
0.51167459
0.48030396
0.44922147
0.41860784
0.38864376
0.35950996
0.33138713
0.30445600
0.27889726
0.25489163
0.23261981
0.21226252
0.19400046
0.17801435
0.16448489
0.15359279
0.14551876
0.17791323
0.27725503
0.42696750
0.61047398
0.81119780
1.01256232
1.19799086
1.35090675
1.45473335
1.49289399
1.47784348
1.43656758
1.37428601
1.29621849
1.20758476
1.11360455
1.01949758
0.93048358
0.85178229
0.78861342
0.74619670
0.72975187
0.73733782
0.75318869
0.76178707
0.75843719
0.74910852
0.73428152
0.71443665
0.69005437
0.66161514
0.62959941
0.59448765
0.55676032
0.51689787
0.47538077
0.43268946
0.38930442
0.34570610
0.30237496
0.25979146
0.21843605
0.17878920
0.14133137
0.10654301
0.07490459
0.04689656
0.02299938
0.00369351
-0.01054059
-0.01922246
-0.02187164
0.03033169
0.16935244
0.37038867
0.60863845
0.85929984
1.09757093
1.29864977
1.43773443
1.49002298
1.47789932
1.44304287
1.38959497
1.32169696
1.24349017
1.15911594
1.07271562
0.98843053
0.91040203
0.84277144
0.78968010
0.75526936
0.74368055
0.75272592
0.76827811
0.77656898
0.77411903
0.76684951
0.75509338
0.73918360
0.71945312
0.69623490
0.66986189
0.64066705
0.60898334
0.57514371
0.53948111
0.50232851
0.46401886
0.42488511
0.38526023
0.34547716
0.30586886
0.26676830
0.22850842
0.19142217
0.15584253
0.12210244
0.09053486
0.06147274
0.03524904
0.01219672
-0.00735127
-0.02306198
-0.03460243
-0.04163969
-0.04384079
-0.00350799
0.10528591
0.26521803
0.45896551
0.66920548
0.87861507
1.06987140
1.22565160
1.32863282
1.36149217
1.34211036
1.30259701
1.24697259
1.17925758
1.10347245
1.02363768
0.94377375
0.86790113
0.80004029
0.74421172
0.70443590
0.68473329
0.68137591
0.68228021
0.67893334
0.66879083
0.65514028
0.63821685
0.61825576
0.59549218
0.57016131
0.54249834
0.51273847
0.48111688
0.44786876
0.41322931
0.37743372
0.34071717
0.30331486
0.26546198
0.22739373
0.18934529
0.15155185
0.11424860
0.07767074
0.04205346
0.00763195
-0.02535860
-0.05668300
-0.08610606
-0.11339259
-0.13830739
-0.16061527
-0.18008105
-0.19646953
-0.20954553
-0.21907384
-0.18528507
-0.08039305
0.07786256
0.27174210
0.48350590
0.69541432
0.88972769
1.04870635
1.15461065
1.18970091
1.17289154
1.13743559
1.08710138
1.02565725
0.95687153
0.88451256
0.81234865
0.74414816
0.68367939
0.63471070
0.60101040
0.58634684
0.58653834
0.58695908
0.58203477
0.57427867
0.56392426
0.55120499
0.53635431
0.51960569
0.50119258
0.48134845
0.46030675
0.43830094
0.41556449
0.39233084
0.36883346
0.34530581
0.32198134
0.29909352
0.27687580
0.25556165
0.23538451
0.21657786
0.19937515
0.18400983
0.17071537
0.15972523
0.15127286
0.14559172
0.19278603
0.32657599
0.52261905
0.75657267
1.00409430
1.24084140
1.44247143
1.58464183
1.64301006
1.63551035
1.59971440
1.54073586
1.46368836
1.37368558
1.27584116
1.17526874
1.07708199
0.98639455
0.90832007
0.84797220
0.81046460
0.80091091
0.82153406
0.84102724
0.84210750
0.83785838
0.82864864
0.81484703
0.79682232
0.77494325
0.74957860
0.72109712
0.68986757
0.65625870
0.62063928
0.58337807
0.54484383
0.50540531
0.46543127
0.42529047
0.38535168
0.34598364
0.30755513
0.27043489
0.23499169
0.20159428
0.17061143
0.14241190
0.11736443
0.09583780
0.07820077
0.06482208
0.05607050
0.05231478
0.05392370
0.09336832
0.19278460
0.33703858
0.51099635
0.69952394
0.88748742
1.05975285
1.20118629
1.29665380
1.33102144
1.31478041
1.27238179
1.20963145
1.13233526
1.04629910
0.95732883
0.87123034
0.79380949
0.73087216
0.68822422
0.67167154
0.67838844
0.69266242
0.70096912
0.69882566
0.69106362
0.67813042
0.66047345
0.63854011
0.61277781
0.58363392
0.55155587
0.51699104
0.48038683
0.44219065
0.40284988
0.36281194
0.32252421
0.28243410
0.24298900
0.20463632
0.16782345
0.13299779
0.10060674
0.07109770
0.04491806
0.02251523
0.00433661
-0.00917042
-0.01755844
-0.02038007
0.03615316
0.18773245
0.40765935
0.66923543
0.94576221
1.21054127
1.43687413
1.59806237
1.66740751
1.66413227
1.62910783
1.56810852
1.48690865
1.39128253
1.28700447
1.17984880
1.07558982
0.98000185
0.89885921
0.83793620
0.80300715
0.79984637
0.83404160
0.86763622
0.87743363
0.88024291
0.87653036
0.86676223
0.85140480
0.83092434
0.80578713
0.77645944
0.74340753
0.70709768
0.66799617
0.62656926
0.58328323
0.53860434
0.49299888
0.44693311
0.40087330
0.35528573
0.31063667
0.26739239
0.22601916
0.18698326
0.15075096
0.11778852
0.08856223
0.06353834
0.04318315
0.02796291
0.01834390
0.01479239
0.01777465
0.02775696
0.09047896
0.23546122
0.43884143
0.67675731
0.92534652
1.16074678
1.35909577
1.49653119
1.54919072
1.53578196
1.49459394
1.43113656
1.35091967
1.25945318
1.16224695
1.06481087
0.97265482
0.89128868
0.82622233
0.78296565
0.76702852
0.77842104
0.79936800
0.80870128
0.80127057
0.78644168
0.76482073
0.73701384
0.70362713
0.66526672
0.62253872
0.57604925
0.52640444
0.47421039
0.42007324
0.36459909
0.30839406
0.25206429
0.19621587
0.14145493
0.08838759
0.03761997
-0.01024181
-0.05459164
-0.09482340
-0.13033097
-0.16050823
-0.18474906
-0.20244734
-0.21299696
-0.21579180
-0.17847591
-0.08060994
0.06053740
0.22769738
0.40360127
0.57098036
0.71256590
0.81108918
0.84928147
0.84202387
0.81800217
0.78065470
0.73341977
0.67973569
0.62304080
0.56677340
0.51437182
0.46927438
0.43491939
0.41474517
0.41219004
0.42740489
0.44358864
0.45054647
0.45297902
0.45123986
0.44568253
0.43666059
0.42452759
0.40963708
0.39234262
0.37299776
0.35195605
0.32957105
0.30619631
0.28218538
0.25789181
